Altura (cm),Temperatura (C)
0,17.0
1.0,17.0
2.0,17.0
3.0,16.0
4.0,15.0
5.0,12.0
6.0,9.0
7.0,6.0
8.0,2.0
9.0,-1.0
10.0,-5.0
11.0,-10.0
12.0,-15.0
13.0,-20.0
14.0,-25.0
15.0,-60.0
16.0,-94.0
17.0,-123.0
18.0,-146.0
19.0,-167.0
20.0,-186.0
21.0,-221.0
22.0,-223.0
23.0,-223.0
24.0,-223.0
